frequency,raw
10,-51.22
11,-48.88
12,-46.71
13,-44.72
14,-42.90
15,-41.28
16,-39.83
17,-38.51
18,-37.30
19,-36.19
20,-35.13
21,-34.10
22,-33.13
23,-32.27
24,-31.48
25,-30.76
26,-30.25
27,-29.99
28,-30.03
29,-30.31
30,-30.67
31,-30.92
32,-31.02
33,-30.81
34,-30.09
35,-28.78
36,-26.93
37,-24.60
38,-21.84
39,-18.85
40,-15.88
41,-13.06
42,-10.43
43,-8.09
44,-5.87
45,-4.05
46,-2.89
47,-2.49
48,-3.00
49,-4.05
50,-5.16
51,-5.80
52,-5.41
53,-4.30
54,-2.86
55,-1.49
56,-0.69
57,-0.21
58,0.12
59,0.47
60,0.98
61,1.62
62,2.40
63,3.29
64,4.26
65,5.27
66,6.22
67,7.09
68,7.92
69,8.39
70,8.29
71,7.48
72,5.92
73,4.15
74,2.68
75,2.08
76,2.62
77,3.64
78,4.62
79,4.99
80,4.48
81,3.43
82,2.05
83,0.55
84,-0.79
85,-1.82
86,-2.31
87,-2.10
88,-1.26
89,-0.05
90,1.21
91,2.19
92,2.77
93,2.99
94,2.87
95,2.52
96,1.97
97,1.26
98,0.48
99,-0.07
100,-0.74
101,-1.56
102,-2.57
104,-3.73
105,-4.97
106,-6.19
107,-7.40
108,-8.30
109,-9.09
110,-9.61
111,-9.91
112,-9.98
113,-9.64
114,-9.01
115,-8.24
117,-7.26
118,-6.13
119,-4.88
120,-3.80
121,-2.93
123,-1.92
124,-1.69
125,-2.33
126,-3.81
128,-5.69
129,-7.78
130,-9.79
131,-11.24
133,-11.66
134,-11.76
135,-11.53
137,-11.12
138,-10.54
140,-10.25
141,-10.46
142,-10.76
144,-10.91
145,-10.64
147,-10.03
148,-9.03
150,-7.88
151,-6.67
153,-5.72
154,-4.66
156,-3.56
157,-2.23
159,-1.17
160,-0.43
162,-0.21
164,-0.44
165,-1.08
167,-1.84
169,-2.47
170,-2.80
172,-2.79
174,-2.40
175,-1.77
177,-0.97
179,-0.10
181,0.71
183,1.51
184,2.21
186,2.88
188,3.40
190,3.60
192,3.72
194,4.05
196,4.57
198,5.27
200,5.81
202,5.81
204,5.15
206,3.74
208,2.02
210,0.36
212,-0.99
214,-1.57
216,-1.50
218,-0.99
221,-0.06
223,0.99
225,1.47
227,1.22
229,0.58
232,-0.41
234,-1.56
236,-2.67
239,-3.40
241,-3.75
244,-3.92
246,-3.68
248,-3.13
251,-2.88
253,-2.86
256,-2.82
259,-2.61
261,-2.08
264,-1.09
266,0.13
269,1.04
272,1.08
274,0.91
277,0.47
280,-0.17
283,-0.73
286,-0.76
288,-0.47
291,-0.34
294,-0.35
297,-0.10
300,-0.30
303,-1.05
306,-2.24
309,-3.32
312,-4.26
316,-4.55
319,-3.90
322,-2.49
325,-0.96
328,0.32
332,1.12
335,1.23
338,1.08
342,1.28
345,1.76
349,2.24
352,2.38
356,2.14
359,1.50
363,0.58
366,-0.12
370,-0.79
374,-1.38
377,-1.68
381,-1.36
385,-1.20
389,-1.77
393,-2.32
397,-2.55
401,-2.69
405,-2.43
409,-1.69
413,-0.51
417,0.06
421,-0.44
425,-1.81
430,-3.61
434,-5.03
438,-5.92
443,-6.22
447,-5.97
451,-5.90
456,-5.79
460,-5.54
465,-6.14
470,-7.02
474,-7.33
479,-6.72
484,-6.27
489,-7.15
494,-7.26
499,-6.04
504,-5.34
509,-4.63
514,-3.12
519,-1.29
524,-0.28
529,-0.76
535,-1.05
540,-0.86
545,-0.76
551,-0.71
556,-0.64
562,-0.29
568,0.19
573,0.72
579,1.37
585,1.97
591,2.30
596,2.23
602,1.72
608,1.42
615,1.27
621,1.88
627,2.47
633,3.03
639,3.39
646,3.22
652,2.54
659,1.87
665,1.52
672,1.82
679,2.24
686,2.80
692,2.68
699,1.77
706,0.89
713,0.06
721,-0.21
728,-0.28
735,-0.97
742,-1.44
750,-2.66
757,-3.86
765,-4.08
773,-3.43
780,-2.08
788,-0.61
796,-0.06
804,0.45
812,-0.24
820,-1.13
828,-1.11
837,-0.26
845,0.10
853,0.47
862,0.59
871,0.57
879,-0.08
888,-0.55
897,-0.41
906,0.11
915,0.28
924,-0.11
933,0.21
943,0.76
952,0.94
962,1.19
971,1.05
981,0.85
991,0.93
1001,0.36
1011,0.35
1021,0.43
1031,0.55
1041,1.09
1052,0.24
1062,-0.61
1073,-0.77
1084,-0.74
1094,-1.42
1105,-1.91
1116,-2.04
1128,-1.66
1139,-1.71
1150,-1.06
1162,0.07
1173,1.22
1185,0.76
1197,0.37
1209,-0.17
1221,-0.39
1233,-0.13
1246,0.34
1258,1.10
1271,1.61
1283,1.26
1296,0.91
1309,0.22
1322,-0.98
1335,-2.06
1349,-2.08
1362,-2.10
1376,-2.11
1390,-1.57
1404,-0.99
1418,-0.86
1432,-1.16
1446,-0.85
1461,-0.23
1475,-0.55
1490,-1.06
1505,-0.95
1520,-1.25
1535,-1.75
1550,-1.52
1566,-0.74
1582,-0.44
1597,-0.15
1613,-0.06
1629,0.42
1646,0.75
1662,0.64
1679,0.78
1696,0.64
1713,0.58
1730,0.60
1747,0.47
1764,0.31
1782,-0.03
1800,-0.37
1818,-0.42
1836,-0.55
1854,-0.22
1873,0.19
1892,0.59
1911,0.51
1930,0.50
1949,1.13
1969,1.62
1988,1.84
2008,2.26
2028,2.39
2048,2.34
2069,2.01
2090,1.60
2111,1.19
2132,1.06
2153,1.17
2175,1.50
2196,1.76
2218,1.66
2240,1.88
2263,1.60
2285,1.59
2308,1.98
2331,2.52
2355,2.85
2378,2.97
2402,2.13
2426,1.94
2450,1.53
2475,1.37
2500,1.29
2525,1.76
2550,2.16
2575,2.37
2601,2.37
2627,2.33
2653,2.06
2680,1.60
2707,0.04
2734,-0.46
2761,-1.42
2789,-2.15
2817,-2.14
2845,-2.19
2873,-1.85
2902,-1.89
2931,-3.08
2960,-3.17
2990,-5.03
3020,-6.56
3050,-6.87
3080,-7.52
3111,-6.93
3142,-5.41
3174,-6.25
3206,-6.68
3238,-7.75
3270,-8.04
3303,-6.78
3336,-6.17
3369,-3.97
3403,-0.96
3437,-0.67
3471,-0.45
3506,-0.69
3541,-1.12
3576,-0.84
3612,-1.24
3648,-0.58
3685,0.48
3721,1.39
3759,1.32
3796,0.95
3834,0.80
3873,0.83
3911,0.70
3950,1.15
3990,1.25
4030,1.42
4070,0.39
4111,-0.13
4152,-0.03
4193,0.20
4235,0.79
4278,1.52
4321,2.00
4364,2.20
4407,1.70
4451,2.09
4496,2.68
4541,3.30
4586,3.87
4632,3.89
4679,3.71
4725,3.49
4773,3.50
4820,3.74
4868,3.93
4917,4.10
4966,4.04
5016,3.92
5066,3.94
5117,4.06
5168,4.54
5220,4.83
5272,5.28
5325,5.82
5378,6.27
5432,6.58
5486,6.47
5541,6.43
5596,6.54
5652,6.47
5709,6.43
5766,6.29
5823,5.96
5882,5.79
5940,5.52
6000,5.66
6060,5.75
6120,5.63
6182,5.51
6244,5.24
6306,4.85
6369,4.88
6433,4.70
6497,4.53
6562,4.10
6628,3.23
6694,2.96
6761,2.85
6828,2.38
6897,2.43
6966,2.63
7035,2.74
7106,2.52
7177,2.32
7249,2.62
7321,2.49
7394,1.92
7468,2.15
7543,2.46
7618,2.47
7694,2.60
7771,3.06
7849,3.36
7928,3.43
8007,3.54
8087,3.99
8168,4.14
8250,4.31
8332,4.72
8415,5.12
8499,5.32
8584,5.62
8670,5.79
8757,5.90
8845,5.99
8933,6.16
9022,6.47
9113,6.66
9204,6.75
9296,6.82
9389,6.95
9483,6.95
9577,7.12
9673,7.10
9770,7.08
9868,6.95
9966,6.75
10066,6.50
10167,6.30
10268,6.02
10371,5.86
10475,5.60
10579,5.35
10685,5.10
10792,4.88
10900,4.61
11009,4.26
11119,3.97
11230,3.77
11343,3.55
11456,3.52
11571,3.52
11686,3.53
11803,3.52
11921,3.41
12040,3.37
12161,3.09
12282,2.73
12405,2.48
12529,2.20
12655,2.16
12781,2.21
12909,2.27
13038,2.21
13168,2.03
13300,1.83
13433,1.48
13567,1.10
13703,0.76
13840,0.34
13978,-0.00
14118,-0.23
14259,-0.33
14402,-0.28
14546,-0.07
14692,0.11
14838,0.20
14987,0.23
15137,0.40
15288,0.58
15441,0.70
15595,0.95
15751,1.20
15909,1.31
16068,1.27
16229,1.22
16391,1.14
16555,0.95
16720,0.76
16888,0.57
17056,0.27
17227,-0.06
17399,-0.42
17573,-0.74
17749,-0.97
17926,-1.17
18106,-1.33
18287,-1.62
18470,-2.08
18654,-2.65
18841,-3.21
19029,-3.76
19220,-4.07
19412,-4.52
19606,-4.95
19802,-5.37
20000,-5.77
